#0: Emin_bin(MeV) 1: Emax_bin(MeV) 2: F(erg/cm2/s) 3: F_error(erg/cm2/s)
2.80e+05 3.40e+05 2.00e-11 4.93e-12
3.40e+05 4.90e+05 9.70e-12 1.02e-12
4.90e+05 7.30e+05 1.10e-11 9.23e-13
7.30e+05 1.10e+06 9.14e-12 8.25e-12
1.10e+06 1.60e+06 8.80e-12 1.79e-12
1.60e+06 2.30e+06 9.25e-12 8.68e-13
2.30e+06 3.60e+06 7.26e-12 9.24e-13
3.60e+06 4.80e+06 6.07e-12 9.38e-13
4.80e+06 7.60e+06 5.65e-12 1.01e-12
7.60e+06 1.04e+07 5.96e-12 1.21e-12
1.04e+07 1.57e+07 3.15e-12 1.08e-12
1.57e+07 2.32e+07 3.62e-12 1.17e-12
2.32e+07 3.48e+07 3.10e-12 1.55e-12
3.48e+07 4.62e+07 2.01e-12 1.42e-12