#0: Emin_bin(MeV) 1: Emax_bin(MeV) 2: F(erg/cm2/s) 3: F_error(erg/cm2/s)
1.87e+05 2.31e+05 2.25e-11 5.66e-12
2.26e+05 2.79e+05 2.41e-11 4.73e-12
2.73e+05 3.38e+05 3.08e-11 6.05e-12
3.31e+05 4.09e+05 3.44e-11 3.23e-12
4.00e+05 4.95e+05 2.94e-11 5.78e-12
4.84e+05 5.99e+05 3.60e-11 7.08e-12
5.95e+05 7.36e+05 3.04e-11 5.97e-12
7.20e+05 8.90e+05 3.40e-11 4.89e-12
8.71e+05 1.08e+06 3.47e-11 5.00e-12
1.05e+06 1.30e+06 3.10e-11 6.10e-12
1.28e+06 1.58e+06 2.43e-11 6.10e-12
1.52e+06 1.88e+06 2.75e-11 5.40e-12
1.87e+06 2.31e+06 2.65e-11 3.82e-12
2.26e+06 2.79e+06 2.97e-11 2.78e-12
2.73e+06 3.38e+06 2.32e-11 3.34e-12
3.31e+06 4.09e+06 2.07e-11 2.98e-12
4.00e+06 4.95e+06 2.22e-11 4.35e-12
4.84e+06 5.99e+06 2.71e-11 5.33e-12
5.86e+06 7.24e+06 2.12e-11 3.05e-12
7.20e+06 8.90e+06 1.95e-11 1.83e-12
8.57e+06 1.06e+07 1.69e-11 2.44e-12
1.04e+07 1.28e+07 1.06e-11 3.90e-12
1.43e+07 1.76e+07 5.68e-12 2.82e-12
2.09e+07 2.58e+07 4.74e-12 2.36e-12
3.05e+07 3.78e+07 6.49e-12 0.0e-12
